"Time (s)","X (rad/s)","Y (rad/s)","Z (rad/s)"
1.192550000E-2,-4.619568586E-2,9.949898720E-2,5.292309523E-1
2.187250000E-2,-4.058200866E-2,9.320008010E-2,5.477005243E-1
3.181950000E-2,-2.816013061E-2,9.119769931E-2,5.643196702E-1
4.176650000E-2,-8.510795422E-3,8.533049375E-2,5.869234800E-1
5.171350000E-2,3.192426171E-3,7.617452741E-2,5.949655771E-1
6.166050000E-2,8.140313439E-3,6.937894225E-2,5.981685519E-1
7.160749999E-2,9.678713977E-3,5.946968496E-2,5.994340181E-1
8.155449999E-2,6.048559211E-3,4.582524672E-2,6.059864759E-1
9.150150001E-2,1.340434421E-3,1.573820040E-2,6.260166764E-1
1.014485000E-1,7.054512855E-3,-1.671374962E-2,6.491765976E-1
1.113955000E-1,1.925334893E-2,-3.536041081E-2,6.802826524E-1
1.213425000E-1,3.034541570E-2,-4.796249047E-2,7.025594711E-1
1.312895000E-1,3.849181905E-2,-6.249318272E-2,7.205066085E-1
1.412365000E-1,4.264235869E-2,-8.190070838E-2,7.472428679E-1
1.511835000E-1,3.431329876E-2,-1.023721918E-1,7.621936798E-1
1.611305000E-1,2.111387253E-2,-1.292016804E-1,7.772975564E-1
1.710775000E-1,1.298813429E-2,-1.295563579E-1,7.983497381E-1
1.810245000E-1,1.834549475E-3,-1.245317683E-1,8.261544704E-1
1.909715000E-1,-7.280038204E-3,-1.330842227E-1,8.497538567E-1
2.009185000E-1,-8.351427503E-3,-1.537695378E-1,8.831312656E-1
2.108655000E-1,-3.779481165E-3,-1.564209312E-1,8.873213530E-1
2.208125000E-1,5.499238148E-3,-1.674863696E-1,8.768618107E-1
2.307595000E-1,2.121477760E-2,-1.746166348E-1,8.728325367E-1
2.407065000E-1,3.932826594E-2,-1.588714719E-1,8.641600013E-1
2.506535000E-1,6.762965024E-2,-1.348303109E-1,8.606792688E-1
2.606005000E-1,9.785600007E-2,-1.241853982E-1,8.505653739E-1
2.705475000E-1,1.133800820E-1,-1.248205826E-1,8.291856050E-1
2.804945000E-1,1.413459331E-1,-1.239550486E-1,8.088321090E-1
2.904415000E-1,1.612895876E-1,-1.441053152E-1,7.923579812E-1
3.003885000E-1,1.826340258E-1,-1.832862794E-1,7.883120775E-1
3.103355000E-1,2.087850571E-1,-2.405232638E-1,7.970657945E-1
3.202825000E-1,2.271014899E-1,-3.009698093E-1,8.027141094E-1
3.302295000E-1,2.347923666E-1,-3.433977664E-1,7.970648408E-1
3.401765000E-1,2.267166078E-1,-3.720216751E-1,7.816632390E-1
3.501235000E-1,1.909754872E-1,-3.693600893E-1,7.536270022E-1
3.600705000E-1,1.470980495E-1,-3.580014408E-1,7.268382907E-1
3.700175000E-1,1.022851467E-1,-3.265453279E-1,7.058070898E-1
3.799645000E-1,7.623010874E-2,-2.872485220E-1,6.984152198E-1
3.899115000E-1,7.071526349E-2,-2.363902181E-1,6.792565584E-1
3.998585000E-1,7.786505669E-2,-1.763886660E-1,6.489791274E-1
4.098055000E-1,9.264321625E-2,-1.116708219E-1,6.191133857E-1
4.197525000E-1,1.189483255E-1,-2.474151738E-2,5.976317525E-1
4.297035000E-1,1.347458214E-1,6.064701453E-2,5.826810002E-1
4.396505000E-1,1.558026373E-1,1.416971385E-1,5.676916838E-1
4.495975000E-1,1.717507094E-1,1.981433332E-1,5.642735958E-1
4.595445000E-1,1.826145351E-1,1.790945381E-1,5.501396656E-1
4.694915000E-1,1.907595098E-1,6.556381285E-2,5.397228599E-1
4.794385000E-1,1.913243681E-1,-9.310305864E-2,5.159522891E-1
4.893855000E-1,1.615981907E-1,-2.057921737E-1,5.104731321E-1
4.993325000E-1,1.057815328E-1,-2.601222694E-1,5.369430780E-1
5.092795000E-1,2.142143063E-2,-3.226700425E-1,5.782684088E-1
5.192265000E-1,-7.586836815E-2,-4.291970134E-1,6.261606216E-1
5.291735000E-1,-1.463518143E-1,-4.837510288E-1,6.992065907E-1
5.391205000E-1,-1.602511108E-1,-5.027715564E-1,8.003883362E-1
5.490675000E-1,-1.309589446E-1,-5.559170842E-1,8.690005541E-1
5.590145000E-1,-1.068938375E-1,-6.712492704E-1,9.055444598E-1
5.689615000E-1,-1.624874771E-1,-8.070346713E-1,9.022106528E-1
5.789085000E-1,-2.573335469E-1,-9.810019135E-1,8.718556762E-1
5.888555000E-1,-3.063081205E-1,-1.049747586E0,8.447519541E-1
5.988025000E-1,-2.106926441E-1,-1.118649125E0,8.271234632E-1
6.087495000E-1,-7.824826986E-2,-1.177945018E0,7.627825737E-1
6.186965000E-1,3.180499375E-2,-1.276921630E0,6.756242514E-1
6.286435000E-1,5.666621029E-2,-1.332884192E0,5.860695839E-1
6.385905000E-1,5.144854635E-2,-1.356564283E0,5.282790065E-1
6.485375000E-1,4.757454246E-2,-1.184159875E0,4.680728316E-1
6.584845000E-1,3.925882280E-2,-8.740747571E-1,4.254795611E-1
6.684315000E-1,4.230630398E-2,-6.236010790E-1,4.101171494E-1
6.783785000E-1,4.317742214E-2,-4.714608192E-1,4.411264658E-1
6.883255000E-1,2.890142798E-2,-3.871717155E-1,4.567939043E-1
6.982725000E-1,-2.010416007E-3,-2.479118258E-1,4.476411641E-1
7.082195000E-1,-1.921029389E-2,-1.220345125E-1,3.921476305E-1
7.181665000E-1,-2.800698020E-2,-7.202993333E-2,3.076836169E-1
7.281135000E-1,-2.930916287E-2,-9.331760556E-2,2.221064419E-1
7.380605000E-1,-2.053191699E-2,-1.553649902E-1,1.659108102E-1
7.480075000E-1,-2.109734714E-2,-2.216058373E-1,1.526842117E-1
7.579545000E-1,-3.831255063E-2,-2.398921549E-1,1.623299271E-1
7.679015000E-1,-4.918058589E-2,-2.126931101E-1,1.698903888E-1
7.778485000E-1,-6.238293648E-2,-1.631186455E-1,1.855138242E-1
7.877955000E-1,-6.296055019E-2,-1.559359431E-1,1.925228834E-1
7.977425000E-1,-4.230133817E-2,-1.573468894E-1,1.789687276E-1
8.076895000E-1,-1.502305921E-2,-1.662735343E-1,1.694872379E-1
8.176365000E-1,1.024687756E-2,-1.768340319E-1,1.654983610E-1
8.275835000E-1,2.670804784E-2,-1.769633442E-1,1.625846624E-1
8.375305000E-1,2.807318419E-2,-1.555997282E-1,1.576279998E-1
8.474775000E-1,2.956213430E-2,-1.130316406E-1,1.507815272E-1
8.574245000E-1,3.667756915E-2,-7.045701891E-2,1.383192688E-1
8.673725000E-1,5.184481293E-2,-3.418371081E-2,1.169752404E-1
8.773195000E-1,4.670411348E-2,-1.789714955E-2,8.844053745E-2
8.872665000E-1,3.346513584E-2,-3.499285504E-2,6.543382257E-2
8.972135000E-1,2.762934938E-2,-6.947679818E-2,4.042753577E-2
9.071605000E-1,2.372709662E-2,-1.181722581E-1,9.278047830E-3
9.171075000E-1,1.451628655E-2,-1.844729930E-1,-3.309391066E-2
9.270545000E-1,6.672629621E-3,-2.159810513E-1,-7.752041519E-2
9.370015000E-1,-5.404273514E-3,-1.868878752E-1,-1.218098551E-1
9.469485000E-1,-1.754967961E-3,-1.335972697E-1,-1.348387897E-1
9.568955000E-1,-2.313965466E-3,-9.941186011E-2,-1.248261034E-1
9.668425000E-1,4.098740406E-3,-6.786531955E-2,-8.669350296E-2
9.767895000E-1,9.563813917E-3,-3.635346889E-2,-4.792666808E-2
9.867365000E-1,1.280541345E-2,-3.211424872E-2,-3.481725976E-2
9.966835000E-1,1.573329233E-2,-6.017517671E-2,-2.400003187E-2
1.006630500E0,3.701264970E-3,-1.035899520E-1,-9.413708001E-3
1.016577500E0,-6.411556154E-3,-1.047590822E-1,1.192407124E-2
1.026524500E0,-1.872787811E-2,-8.527900279E-2,2.829467691E-2
1.036471500E0,-2.015932836E-2,-3.314336762E-2,2.188764326E-2
1.046418500E0,-9.797251783E-3,4.429295659E-2,1.613520831E-2
1.056365500E0,-5.523547297E-4,1.276586950E-1,7.226669230E-3
1.066312500E0,1.574102789E-3,1.807092130E-1,-8.353263140E-3
1.076259500E0,-2.744745463E-3,2.131459862E-1,-2.302674763E-2
1.086206500E0,-1.480193436E-2,2.184729725E-1,-3.327203169E-2
1.096153500E0,-1.825711876E-2,1.987573206E-1,-4.356887937E-2
1.106100500E0,-1.749304496E-2,1.613629758E-1,-5.632040277E-2
1.116047500E0,-1.548528858E-2,1.187547967E-1,-6.977762282E-2
1.125995500E0,-1.137456577E-2,8.629889786E-2,-7.363711298E-2
1.135942500E0,-6.361164618E-3,7.839463651E-2,-5.835908651E-2
1.145889500E0,2.861533780E-3,7.759857178E-2,-4.292118922E-2
1.155836500E0,8.535930887E-3,9.376342595E-2,-2.742585167E-2
1.165783500E0,1.217882801E-2,1.175663397E-1,-1.773184724E-2
1.175730500E0,3.475884674E-3,1.591582745E-1,-2.100833505E-2
1.185677500E0,-1.250784192E-2,2.038539648E-1,-3.345402330E-2
1.195624500E0,-3.659613431E-2,2.380718440E-1,-6.156262010E-2
1.205571500E0,-6.252202392E-2,2.549709380E-1,-9.983842820E-2
1.215518500E0,-7.188063860E-2,2.484065294E-1,-1.533133686E-1
1.225465500E0,-7.006951421E-2,2.474563867E-1,-2.239257693E-1
1.235412500E0,-7.089988887E-2,2.647427022E-1,-2.978862822E-1
1.245359500E0,-7.193659246E-2,2.592563629E-1,-3.447944820E-1
1.255306500E0,-6.392659992E-2,2.086664140E-1,-3.645293117E-1
1.265253500E0,-5.868710205E-2,1.372771859E-1,-3.689204454E-1
1.275200500E0,-6.900604814E-2,7.575069368E-2,-3.670061529E-1
1.285147500E0,-9.717480093E-2,3.264932707E-2,-3.552420735E-1
1.295094500E0,-1.433984935E-1,2.372374386E-2,-3.755454719E-1
1.305041500E0,-1.764994115E-1,5.675294250E-2,-4.185501337E-1
1.314988500E0,-1.897899210E-1,1.074259654E-1,-4.710080028E-1
1.324936500E0,-1.791070700E-1,1.302794218E-1,-5.194298625E-1
1.334883500E0,-1.791558117E-1,1.558471024E-1,-5.855194330E-1
1.344830500E0,-1.850033104E-1,1.863887608E-1,-6.371520162E-1
1.354777500E0,-1.868986934E-1,1.827660650E-1,-6.720029116E-1
1.364724500E0,-1.770478934E-1,1.765033752E-1,-6.944462061E-1
1.374671500E0,-1.571213305E-1,1.582884043E-1,-7.215865254E-1
1.384618500E0,-1.383808404E-1,1.181310490E-1,-7.334935665E-1
1.394565500E0,-1.056327596E-1,9.070448577E-2,-7.496092319E-1
1.404512500E0,-8.635231853E-2,7.542204857E-2,-7.671047449E-1
1.414459500E0,-8.344281465E-2,6.844403595E-2,-7.778761387E-1
1.424406250E0,-7.794240117E-2,1.175200567E-1,-7.874366641E-1
1.434353250E0,-7.696874440E-2,1.859907210E-1,-8.104705811E-1
1.444300250E0,-7.345638424E-2,3.267223835E-1,-8.273283243E-1
1.454247250E0,-5.371729657E-2,4.397946000E-1,-8.531787992E-1
1.464194250E0,-3.923860937E-2,5.467489362E-1,-9.188674688E-1
1.474141250E0,-5.318638310E-2,6.218471527E-1,-9.617102742E-1
1.484089250E0,-6.313256174E-2,6.726711988E-1,-1.024243593E0
1.494036250E0,-7.244323939E-2,6.722099185E-1,-1.082398534E0
1.503983250E0,-9.902831912E-2,6.953756809E-1,-1.102476120E0
1.513930250E0,-1.172773615E-1,6.888831258E-1,-1.131004214E0
1.523877250E0,-1.341415793E-1,6.602366567E-1,-1.149299741E0
1.533824250E0,-1.476496756E-1,6.441365480E-1,-1.137044072E0
1.543771250E0,-1.531458646E-1,6.119751334E-1,-1.135130167E0
1.553718250E0,-1.650957316E-1,6.116957664E-1,-1.121470809E0
1.563665250E0,-1.683436632E-1,6.063110828E-1,-1.120013237E0
1.573612250E0,-1.675127596E-1,6.331892610E-1,-1.128677368E0
1.583559250E0,-1.515679508E-1,6.237665415E-1,-1.139790654E0
1.593506250E0,-1.300919503E-1,6.299536228E-1,-1.149463892E0
1.603453250E0,-1.012506187E-1,6.159220338E-1,-1.157877088E0
1.613400250E0,-7.197982073E-2,6.068723202E-1,-1.161424160E0
1.623348250E0,-4.792404175E-2,5.763649940E-1,-1.157026768E0
1.633295250E0,-3.252271563E-2,5.403600931E-1,-1.152706027E0
1.643242250E0,-2.638518251E-2,5.041252971E-1,-1.150339842E0
1.653189250E0,-2.247219905E-2,4.391614795E-1,-1.150995135E0
1.663136250E0,-1.681418531E-2,3.763664365E-1,-1.155208230E0
1.673083250E0,-3.194781020E-3,3.116961122E-1,-1.160702586E0
1.683030250E0,1.065750048E-2,2.654658258E-1,-1.161933064E0
1.692977250E0,1.887068897E-2,2.458154410E-1,-1.154011011E0
1.702924250E0,3.135429323E-2,2.162235975E-1,-1.130692959E0
1.712871250E0,4.074939340E-2,2.362473756E-1,-1.110401511E0
1.722818250E0,4.091046378E-2,2.527400553E-1,-1.084668398E0
1.732765250E0,3.471755236E-2,2.508446872E-1,-1.049144506E0
1.742712250E0,1.638410799E-2,2.203485668E-1,-1.024453521E0
1.752660250E0,-1.861741650E-3,1.836030632E-1,-9.929928184E-1
1.762607250E0,-3.664206713E-2,1.467814147E-1,-9.719155431E-1
1.772554250E0,-5.596064031E-2,8.199895173E-2,-9.673420787E-1
1.782501250E0,-5.832311511E-2,9.324089624E-3,-9.565603137E-1
1.792448250E0,-4.873467237E-2,-3.560450301E-2,-9.446402788E-1
1.802395250E0,-3.620696440E-2,-5.715377256E-2,-9.307880402E-1
1.812342250E0,-3.033549525E-2,-4.780980572E-2,-9.120686054E-1
1.822289250E0,-3.216336295E-2,-2.374315262E-2,-8.882569075E-1
1.832236250E0,-4.661287740E-2,-1.700668782E-2,-8.740958571E-1
1.842183250E0,-6.717813015E-2,-4.165919870E-2,-8.696315289E-1
1.852130250E0,-1.015270501E-1,-6.732514501E-2,-8.766132593E-1
1.862077250E0,-1.394162625E-1,-1.091787964E-1,-8.621915579E-1
1.872025250E0,-1.655269563E-1,-1.360618025E-1,-8.307515979E-1
1.881972250E0,-1.837278754E-1,-1.364313662E-1,-7.888957262E-1
1.891919250E0,-2.026469707E-1,-1.119491830E-1,-7.431109548E-1
1.901866250E0,-2.125021368E-1,-8.351308852E-2,-7.021279335E-1
1.911813250E0,-2.132355720E-1,-7.019595802E-2,-6.662378311E-1
1.921760250E0,-2.091485858E-1,-8.041351289E-2,-6.419795156E-1
1.931707250E0,-2.025135756E-1,-1.123173833E-1,-6.228492260E-1
1.941654250E0,-2.014012635E-1,-1.527520567E-1,-6.100747585E-1
1.951601250E0,-2.064857781E-1,-1.700120121E-1,-6.015720963E-1
1.961548250E0,-2.278013080E-1,-1.662378460E-1,-5.783621669E-1
1.971495250E0,-2.488040626E-1,-1.469083577E-1,-5.566515923E-1
1.981443250E0,-2.575161755E-1,-1.176497415E-1,-5.288222432E-1
1.991390250E0,-2.549155951E-1,-1.243425384E-1,-5.014872551E-1
2.001337250E0,-2.511806488E-1,-1.539247185E-1,-4.743109047E-1
2.011284250E0,-2.216848284E-1,-1.283522546E-1,-4.538383782E-1
2.021231250E0,-2.029014230E-1,-8.763937652E-2,-4.333268404E-1
2.031178250E0,-2.015658468E-1,-3.171725199E-2,-4.361743033E-1
2.041125250E0,-2.181816846E-1,2.547354437E-2,-4.582501650E-1
2.051072250E0,-2.440039665E-1,4.678469151E-2,-4.764313102E-1
2.061019250E0,-2.645365000E-1,3.162126988E-2,-4.786450863E-1
2.070966250E0,-2.846444249E-1,-1.019089017E-2,-4.684595466E-1
2.080914250E0,-2.822247148E-1,-1.233859640E-2,-4.773166776E-1
2.090861250E0,-2.945948243E-1,-8.886719495E-2,-4.806834459E-1
2.100808250E0,-3.051114380E-1,-2.116839737E-1,-4.655153751E-1
2.110755250E0,-3.104321659E-1,-3.380810618E-1,-4.332860410E-1
2.120702250E0,-2.769541740E-1,-3.967095017E-1,-3.808797896E-1
2.130649250E0,-2.834429741E-1,-4.526449442E-1,-3.154110312E-1
2.140596250E0,-2.620213032E-1,-4.638813734E-1,-2.373404354E-1
2.150543250E0,-2.648567855E-1,-4.622352719E-1,-1.785974950E-1
2.160490250E0,-2.601803243E-1,-4.526826441E-1,-1.328024417E-1
2.170437250E0,-2.655774951E-1,-3.807389438E-1,-1.163715273E-1
2.180385250E0,-2.670700550E-1,-3.083575070E-1,-1.052400321E-1
2.190332250E0,-2.512194514E-1,-2.143130451E-1,-9.980399162E-2
2.200279250E0,-2.098937780E-1,-1.197396219E-1,-9.531792253E-2
2.210226250E0,-1.714201570E-1,-4.586087167E-2,-1.022155061E-1
2.220173250E0,-1.608213335E-1,-8.099241182E-3,-1.184585989E-1
2.230120250E0,-1.784029901E-1,-1.461945847E-2,-1.376812905E-1
2.240067250E0,-2.037047744E-1,-4.128285497E-2,-1.523738205E-1
2.250014250E0,-2.148045599E-1,-6.226057559E-2,-1.549333930E-1
2.259961250E0,-2.174835503E-1,-8.921246976E-2,-1.336655021E-1
2.269909250E0,-2.058138400E-1,-1.277103275E-1,-9.570694715E-2
2.279856250E0,-1.831900775E-1,-1.558040679E-1,-5.911485106E-2
2.289803250E0,-1.720490158E-1,-1.700138897E-1,-2.588765696E-2
2.299750250E0,-1.737797111E-1,-1.766260862E-1,1.057335641E-2
2.309697250E0,-1.897192746E-1,-1.807185560E-1,4.316618666E-2
2.319644250E0,-2.029038966E-1,-1.729094088E-1,6.491663307E-2
2.329591250E0,-2.308274060E-1,-1.404750347E-1,6.651426107E-2
2.339538250E0,-2.523102164E-1,-1.017354578E-1,5.072294176E-2
2.349485250E0,-2.522223592E-1,-6.245755777E-2,3.720314056E-2
2.359433250E0,-2.467895001E-1,-1.438257098E-2,3.386674449E-2
2.369380250E0,-2.270858437E-1,1.937193051E-2,3.018066287E-2
2.379327250E0,-2.143137604E-1,1.204069611E-2,2.410966717E-2
2.389274250E0,-2.076212466E-1,-9.575650096E-3,3.384085745E-2
2.399221250E0,-2.111874819E-1,-2.227453515E-2,6.284400076E-2
2.409168250E0,-2.129816562E-1,-2.448149770E-2,9.660116583E-2
2.419115250E0,-1.955333352E-1,-1.931851171E-2,1.192337200E-1
2.429062375E0,-1.569734216E-1,-1.531338319E-2,1.373061985E-1
2.439010375E0,-1.080314517E-1,-3.557390999E-3,1.478491127E-1
2.448957375E0,-6.489809602E-2,2.374720015E-2,1.496696621E-1
2.458904375E0,-2.616454288E-2,4.808583111E-2,1.513900608E-1
2.468851375E0,4.437041469E-3,5.737946182E-2,1.635607034E-1
2.478798375E0,3.036939353E-2,5.572874844E-2,1.774335653E-1
2.488745375E0,6.693672389E-2,6.453822553E-2,1.837740242E-1
2.498692375E0,1.136037409E-1,1.017191038E-1,1.912661195E-1
2.508639375E0,1.560547948E-1,1.565509290E-1,2.044468969E-1
2.518586375E0,1.863287985E-1,1.906031817E-1,2.046863884E-1
2.528534375E0,2.263995260E-1,2.126773149E-1,1.954904944E-1
2.538481375E0,2.640974522E-1,2.515779138E-1,1.710093319E-1
2.548428375E0,2.968205214E-1,2.864243090E-1,1.462065130E-1
2.558375375E0,3.248397410E-1,3.210118413E-1,1.382064521E-1
2.568322375E0,3.542290330E-1,3.559333384E-1,1.372000426E-1
2.578269375E0,3.812572062E-1,3.751710951E-1,1.388224661E-1
2.588216375E0,3.968779743E-1,3.767109513E-1,1.419476867E-1
2.598163375E0,4.043016136E-1,3.661714196E-1,1.408666819E-1
2.608111375E0,4.066132307E-1,3.441523910E-1,1.299490482E-1
2.618058375E0,4.070582390E-1,3.066935539E-1,1.085065901E-1
2.628005375E0,4.036328793E-1,2.668665349E-1,8.677759022E-2
2.637952375E0,4.033169448E-1,2.344206423E-1,6.697249413E-2
2.647899375E0,4.066344500E-1,2.337260991E-1,6.835893542E-2
2.657846375E0,4.053010941E-1,2.611678839E-1,8.571922034E-2
2.667793375E0,4.015244544E-1,2.630912364E-1,1.080916375E-1
2.677740375E0,3.927944601E-1,2.800938785E-1,1.417171210E-1
2.687688375E0,3.795931637E-1,3.031059802E-1,1.849388927E-1
2.697635375E0,3.728952110E-1,3.031479716E-1,2.336088568E-1
2.707582375E0,3.576166630E-1,2.728199065E-1,2.884915471E-1
2.717529375E0,3.354439139E-1,2.534806132E-1,3.321562409E-1
2.727476375E0,3.291636407E-1,2.348912209E-1,3.864524961E-1
2.737423375E0,3.179652989E-1,2.367305458E-1,4.393069446E-1
2.747370375E0,3.190976679E-1,2.788612247E-1,4.812448025E-1
2.757318375E0,3.148272038E-1,3.251437247E-1,5.123428702E-1
2.767265375E0,3.059493005E-1,3.378504515E-1,5.286555290E-1
2.777212375E0,3.152031600E-1,3.080302477E-1,5.391923189E-1
2.787159375E0,3.255240023E-1,2.672191858E-1,5.295884013E-1
2.797106375E0,3.210954070E-1,1.983704269E-1,5.174773932E-1
2.807053375E0,3.068530858E-1,1.394887418E-1,5.079874992E-1
2.817000375E0,2.818773389E-1,7.747539133E-2,5.022987723E-1
2.826948375E0,2.585139573E-1,5.742285401E-2,4.537341595E-1
2.836895375E0,2.206960171E-1,3.748574108E-2,4.254025519E-1
2.846842375E0,1.927615851E-1,-2.055678889E-2,4.597168565E-1
2.856789375E0,1.931896508E-1,-9.006562084E-2,5.109121799E-1
2.866736375E0,2.107207030E-1,-1.136066318E-1,5.502518415E-1
2.876683375E0,2.294010967E-1,-8.562016487E-2,5.788549185E-1
2.886630375E0,2.309633046E-1,-3.246639296E-2,6.034465432E-1
2.896577375E0,1.981772184E-1,4.829721060E-3,6.222767234E-1
2.906525375E0,1.483252347E-1,2.452992275E-2,6.288129091E-1
2.916472375E0,1.095042527E-1,5.456529558E-2,6.126522422E-1
2.926419375E0,8.515017480E-2,1.041871756E-1,5.747834444E-1
2.936366375E0,7.910142839E-2,1.543918252E-1,5.283184052E-1
2.946313375E0,7.641190290E-2,1.857074052E-1,5.142073631E-1
2.956260375E0,7.963476330E-2,2.172767073E-1,5.213568807E-1
2.966207375E0,6.813310087E-2,2.248480618E-1,5.641472340E-1
2.976155375E0,5.734580383E-2,2.130230516E-1,6.255221963E-1
2.986102375E0,4.247018322E-2,2.132637948E-1,6.867496371E-1
2.996049375E0,2.882573754E-2,2.187697440E-1,7.298126221E-1
3.005996375E0,1.446810365E-2,2.076838017E-1,7.663924694E-1
3.015943375E0,-3.093848936E-2,1.664203107E-1,8.040396571E-1
3.025890375E0,-5.757063627E-2,9.865005314E-2,8.538551331E-1
3.035837375E0,-5.917457864E-2,7.095959783E-2,9.050250053E-1
3.045785375E0,-5.278059468E-2,3.083934262E-2,9.571888447E-1
3.055732375E0,-3.298586980E-2,-2.076024376E-2,1.016196370E0
3.065679375E0,1.473834622E-3,-5.774275959E-2,1.064760089E0
3.075626375E0,1.781713031E-2,-9.350326657E-2,1.097308397E0
3.085573375E0,2.924715169E-2,-8.976898342E-2,1.116931915E0
3.095520375E0,2.823276073E-2,-7.238812000E-2,1.122331977E0
3.105467375E0,2.142146043E-2,-6.062626466E-2,1.142879486E0
3.115415375E0,2.407706529E-2,-1.016918719E-1,1.180776715E0
3.125362375E0,3.028223105E-2,-1.575442106E-1,1.207735300E0
3.135309375E0,5.226584896E-2,-2.272621542E-1,1.250973225E0
3.145256375E0,8.611781895E-2,-2.869329154E-1,1.278705955E0
3.155203375E0,1.264088750E-1,-3.090883791E-1,1.308182359E0
3.165150375E0,1.541957557E-1,-2.764404118E-1,1.326523542E0
3.175097375E0,1.732030362E-1,-2.314585447E-1,1.336069942E0
3.185045375E0,1.753418148E-1,-2.019033134E-1,1.341387987E0
3.194992375E0,1.647238284E-1,-2.203035802E-1,1.344173312E0
3.204939375E0,1.539092660E-1,-2.558125556E-1,1.351368904E0
3.214886375E0,1.553482860E-1,-2.792565227E-1,1.359488487E0
3.224833375E0,1.699868739E-1,-3.131007850E-1,1.361637592E0
3.234780375E0,1.818514764E-1,-3.454563022E-1,1.349861503E0
3.244728375E0,1.900388300E-1,-3.489285409E-1,1.332316637E0
3.254675375E0,1.883273721E-1,-3.101062179E-1,1.308050036E0
3.264622375E0,1.663389951E-1,-2.663038671E-1,1.284846783E0
3.274569375E0,1.125669107E-1,-2.948555052E-1,1.250865459E0
