Time (s),X (rad/s),Y (rad/s),Z (rad/s)
0.008864583338,0.004753551912,0.006820037961,-0.017042985190000002
0.01891758334,-0.012799362649999998,0.010225283909999999,-0.02259384841
0.02897058333,-0.02400621213,0.008085967042,-0.01756127179
0.03902358333,-0.03240505233,0.001113793929,-0.006659151055
0.04907658334,-0.045403141529999996,0.003205973422,-0.001897685463
0.05912958334,-0.06826017797,0.01173012424,-0.01007982437
0.06918258332999999,-0.09051115811,0.01882451959,-0.030764596539999998
0.07923558333,-0.11266013230000001,0.02442035265,-0.05630138143999999
0.08928858333999999,-0.1253333092,0.02459425852,-0.07108725607000001
0.09934158333999998,-0.1426025778,0.030540563169999996,-0.06666214763999999
0.1093945833,-0.1576643586,0.047728072850000004,-0.05236097053
0.11944758330000001,-0.1761247814,0.06413943321,-0.03471593186
0.1295005833,-0.1911410242,0.07447436452,-0.01927892305
0.1395535833,-0.1976202577,0.08520808816,-0.00514599029
0.1496065833,-0.2017513514,0.1027945355,-0.008674412966
0.1596595833,-0.1989835352,0.1428562105,-0.015943776819999998
0.16971258329999997,-0.19693955780000003,0.18427422640000002,-0.02216066048
0.17976558329999998,-0.2043980509,0.22570645809999998,-0.027760416269999998
0.18981858329999998,-0.22204068300000002,0.24789193269999998,-0.05221036449
0.1998715833,-0.2576403618,0.2544508576,-0.0845946297
0.2099245833,-0.314463675,0.2332853675,-0.10588340460000001
0.21997758329999997,-0.4010615051,0.2408578843,-0.1072057188
0.23003058329999998,-0.5085424185,0.18905167280000001,-0.1110425368
0.2400835833,-0.6271867156,0.07478132843999999,-0.1291943491
0.2501365833,-0.7747489809999999,-0.012336792420000001,-0.1571735144
0.2601905833,-0.9763747454,-0.08940532804,-0.20742540059999998
0.2702435833,-1.221821308,-0.1499040872,-0.2532586455
0.28029658329999996,-1.4866368769999998,-0.17115807530000002,-0.2449769527
0.2903495833,-1.6849373580000002,-0.2324629724,-0.19482058289999998
0.30040258329999997,-1.7692134380000002,-0.3044732511,-0.1314629316
0.3104555833,-1.740855575,-0.3450430632,-0.028822049500000002
0.3205085833,-1.766020894,-0.25746572019999997,0.1618898362
0.33056158329999996,-1.813277125,-0.1484995484,0.36055099960000003
0.3406145833,-1.733079553,-0.01636021025,0.46157568689999995
0.3506675833,-1.52142942,0.0273041781,0.4403345883
0.3607205833,-1.288791418,-0.07772761583,0.3736396432
0.3707735833,-1.061718345,-0.2112915367,0.3184592128
0.38082658329999997,-0.7988604903000001,-0.23918686809999998,0.2085437477
0.3908795833,-0.45464962719999996,-0.13947360220000002,0.1103628576
0.4009325833,-0.1468518376,-0.011283409779999998,-0.0258434508
0.41098558329999996,0.1208741367,0.1218077987,-0.1671973765
0.4210385833,0.3130195141,0.23658452929999998,-0.2671847343
0.43109158329999997,0.4722089171,0.2914347351,-0.3213683665
0.4411445833,0.5903286338,0.2871475816,-0.3533838093
0.4511975833,0.6361557841,0.2657871544,-0.41336432100000003
0.46125058329999996,0.6112207174000001,0.2799057066,-0.4982768297
0.4713035833,0.5147173405,0.3080923557,-0.5686665772999999
0.4813565833,0.4067967236,0.41701388359999997,-0.6103160381
0.4914095833,0.3457291126,0.49769622090000004,-0.6034645438
0.5014625832999999,0.22714507579999998,0.5258405804999999,-0.4961765707
0.5115155833,0.06999593973,0.4224238992,-0.3525493741
0.5215685833,-0.07715257257000001,0.18318730589999999,-0.2194981128
0.5316215833,-0.21211065350000002,-0.0429693982,-0.08521380275
0.5416745833,-0.3240837455,-0.18279236559999998,0.005891488399
0.5517275832999999,-0.3863098323,-0.1960466504,0.05234207585
0.5617815832999999,-0.3656540811,-0.08536928892000001,0.08761588483999999
0.5718345833,-0.317325443,0.06259594113,0.13518606130000002
0.5818875833,-0.2696812451,0.1493168473,0.19442433120000002
0.5919405833,-0.2502894402,0.17940950390000002,0.2416285872
0.6019935833,-0.26121047140000003,0.17225188019999998,0.2470873594
0.6120465833,-0.2691898346,0.11901422589999999,0.1933735311
0.6220995833,-0.2695150673,0.048773191869999996,0.1364559233
0.6321525833,-0.26670596,-0.047014586629999994,0.04513587058
0.6422055833,-0.2176983356,-0.0675406903,-0.03951428458
0.6522585833,-0.1685342491,-0.05151538923000001,-0.1151797548
0.6623115833,-0.1034550667,0.006000788882000001,-0.1325448006
0.6723645832999999,-0.02651927806,0.009432804771,-0.1346790642
0.6824175833,0.01546431612,0.009725177661,-0.10508149859999999
0.6924705833,0.05045585706999999,-0.01149568893,-0.07820248603999999
0.7025235833,0.0627258867,-0.08344826847,-0.0945404619
0.7125765833,0.07556791603999999,-0.09130486101,-0.1238594651
0.7226295832999999,0.08899743855,-0.050347592680000004,-0.1542417705
0.7326825833,0.07959567755,0.0722425133,-0.1590426415
0.7427355833,0.04863121361000001,0.1283567101,-0.1710709929
0.7527885833,-0.011394574309999999,0.07497336715,-0.18349944059999998
0.7628415833,-0.09082468599,0.02979896776,-0.18959142269999998
0.7728945832999999,-0.1564700007,-0.009281056002,-0.2172379643
0.7829475833,-0.1679183245,-0.0616311729,-0.2431391776
0.7930005833,-0.1357129812,-0.02561298572,-0.20223169030000002
0.8030535833,-0.08050094545,0.08956376463,-0.09597358853
0.8131065833,-0.003755563404,0.17695833739999997,0.046968124810000005
0.8231595832999999,0.02102856711,0.1718256027,0.1410850734
0.8332125833,0.003693786217,0.06948057562000001,0.1771160364
0.8432655833,-0.014759680259999998,-0.02625561506,0.1937628835
0.8533185833,-0.050728335980000004,-0.02196206525,0.1595132947
0.8633725833,-0.06590034813,0.0348183997,0.05979113281
0.873425,-0.07847712934,0.1410819888,-0.047024529429999996
0.883478,-0.1024551094,0.2409154028,-0.08342661709
0.893531,-0.1303431839,0.2380173653,-0.0698434338
0.903584,-0.1377711445,0.1620542109,-0.03275679797
0.913637,-0.14333049949999999,0.1014111042,-0.035679347810000005
0.92369,-0.1218846068,0.08222489058999999,-0.050606634469999995
0.933743,-0.08380832523,0.1030470803,-0.04263313115
0.943796,-0.035708904269999994,0.17387001219999998,0.002942070365
0.953849,0.006016437896,0.2684039772,0.05101798847
0.963902,0.02804230526,0.3157368302,0.062191419299999995
0.973955,0.011738167140000002,0.2961293161,0.03828155994
0.984008,0.011868028899999999,0.2663809657,-0.03587211668
0.994061,0.02003354765,0.2600612938,-0.1081484407
1.004114,0.06444246322000001,0.25466313960000003,-0.132768631
1.014167,0.08705483377,0.22518166899999997,-0.1157547534
1.02422,0.10507106039999999,0.1876036525,-0.08182141185
1.034273,0.09751087427,0.2289745212,-0.08363156021000001
1.044326,0.0480264388,0.2257224172,-0.09683292359
1.054379,0.001965468051,0.2452183515,-0.1110954806
1.064432,-0.00326527562,0.27925804260000003,-0.1047066227
1.074485,0.02520498261,0.2848736048,-0.07523874938
1.084538,0.04940127581,0.21465863289999998,-0.01114695892
1.094591,0.06538130343,0.2029082328,0.06442316622000001
1.104644,0.04869575799,0.18747253719999998,0.1509724855
1.114697,0.0134086078,0.16565324369999998,0.1592139006
1.12475,-0.04666113853,0.2104120553,0.1242193878
1.134803,-0.09812033921,0.2739905119,0.06515926868
1.144856,-0.12148883939999999,0.2720651627,-0.01089341287
1.154909,-0.1358683109,0.325635165,-0.07080947607999999
1.164963,-0.1294728518,0.37565258149999997,-0.06282021105
1.175016,-0.09998711944000001,0.3837126493,-0.004064221401
1.185069,-0.06701941043,0.34567987920000004,0.07668596506
1.195122,-0.06137830018999999,0.3273378909,0.09055410325999999
1.205175,-0.08922392875,0.3410957158,0.03686036915
1.215228,-0.1488992423,0.3667291701,-0.061808682979999995
1.225281,-0.2717694044,0.4571476579,-0.2139643133
1.235334,-0.3129160404,0.5062842965,-0.26552924510000003
1.245387,-0.2315421104,0.475671649,-0.2303839922
1.25544,-0.1948943585,0.4457004368,-0.134213239
1.265493,-0.08785664289999999,0.3856165707,-0.01349504665
1.275546,-0.009351447225,0.3362673819,0.1373802274
1.285599,-0.005323628895000001,0.3452814221,0.23472750190000002
1.295652,0.001459442428,0.45643669369999995,0.23006458579999997
1.305705,0.01995153725,0.6267194152000001,0.1448373795
1.315758,0.038642931729999996,0.8334259987,0.02565718815
1.325811,0.09414556622999999,0.9441279768999999,-0.08121861517000001
1.335864,0.2003220618,1.007302999,-0.13982360060000001
1.345917,0.2942481339,1.1059829,-0.1328882575
1.35597,0.34733584520000005,1.236942768,-0.09430304169999999
1.366023,0.3135364056,1.471160293,-0.022110749040000002
1.376076,0.2564779222,1.645204306,0.03706202656
1.386129,0.289252907,1.5842955109999999,0.044654835020000005
1.396182,0.40056452159999995,1.50099659,0.122907564
1.406235,0.49560117719999996,1.388825059,0.1905914396
1.416288,0.5941469073,1.367419124,0.21706113219999998
1.426341,0.736546576,1.488499761,0.26208734510000004
1.436394,0.8424024581999999,1.716349721,0.3213232458
1.446447,0.8670673966,1.964159966,0.3600310087
1.4565,0.8208863139,2.196660757,0.3849598169
1.466554,0.8110113144,2.3559250830000003,0.3704013228
1.476607,0.8677227497,2.373443365,0.4180274308
1.48666,1.011550784,2.398508072,0.5420974493
1.496713,1.2163848879999999,2.456651211,0.7328796387000001
1.506766,1.423982024,2.614334822,0.8616253734
1.516819,1.551694989,2.809306622,0.8709326386
1.526872,1.511732459,2.713776588,0.7798977494
1.536925,1.36236608,2.558476686,0.6941689848999999
1.546978,1.207167745,2.385115147,0.6761701106999999
1.557031,1.195419788,2.180699348,0.7286564708
1.567084,1.3491467240000001,2.112644911,0.8791325687999999
1.577137,1.57764411,2.122030497,1.0483428240000001
1.58719,1.6836618190000001,2.228472233,1.1272062059999999
1.597243,1.6838955880000002,2.334074259,1.13151741
1.607296,1.589835644,2.429497719,1.138935924
1.617349,1.483148336,2.415129185,1.12580502
1.627402,1.4920852180000002,2.172030687,1.183196664
1.637455,1.550128222,1.9223171469999998,1.319589615
1.647508,1.5960516930000002,1.783727169,1.4368665219999999
1.657561,1.6289713380000002,1.6751378769999998,1.53329742
1.667614,1.611664176,1.65256989,1.628959179
1.677667,1.584729075,1.711077094,1.66535604
1.68772,1.58041358,1.687826395,1.7091383930000001
1.697773,1.5817430019999998,1.58329618,1.78751874
1.707826,1.5650542969999999,1.514669061,1.864737272
1.717879,1.5385774369999998,1.503843307,1.871896148
1.727932,1.46230185,1.4657592769999999,1.8369292019999999
1.737985,1.323746204,1.321345925,1.827102065
1.748038,1.180631161,1.084078908,1.713862896
1.758091,1.043017864,0.8322326540999999,1.830863595
1.768144,0.9591925144,0.6354323626,1.835862875
1.778197,0.9670190215000001,0.6164751649,1.976094365
1.78825,1.031251073,0.5358460546,1.9820925
1.798304,1.1176365609999999,0.5361568332,2.085030079
1.808357,1.213244319,0.4846170843,2.1443951130000003
1.81841,1.2903589009999998,0.5361952782,2.157257318
1.828463,1.340036869,0.43340975049999997,2.107029676
1.838516,1.3619383569999999,0.4072620571,2.122988939
1.848569,1.370855689,0.4411491454,2.138106346
1.858622,1.383167148,0.4376505315,2.126892805
1.8686752080000002,1.357748985,0.38041475420000004,2.123080969
1.878728208,1.3243238929999999,0.3110311329,2.138452291
1.8887812080000002,1.254848599,0.3351769447,2.130172253
1.898834208,1.168320179,0.3144753873,2.113932133
1.9088872080000001,1.093038797,0.3071819544,2.068850279
1.9189402080000002,1.096125126,0.1852871925,2.020486832
1.928993208,1.089541197,0.024762397630000002,2.026894093
1.9390462080000002,1.031876326,-0.04359455779,2.0108332630000003
1.949099208,0.9163477420999999,-0.01592457108,1.92132616
1.9591522080000001,0.7980048059999999,-0.05138961971,1.802924156
1.9692052080000002,0.6898727417,-0.1113464609,1.726473451
1.979258208,0.6014928222,-0.2281476408,1.6174268719999998
1.9893112080000002,0.6153297424,-0.2427625507,1.482565761
1.999364208,0.7012251615999999,-0.031622614710000004,1.292718768
2.009417208,0.7853881120999999,0.17075756190000002,1.0775439740000001
2.019470208,0.8589893579000001,0.21856716280000002,0.9070265889
2.029523208,0.8980881572,0.1265547574,0.7455985545999999
2.039576208,0.9293227792000001,-0.02380226739,0.606631577
2.0496292080000003,0.9238173366,-0.1531797647,0.48228448630000004
2.059682208,0.9109819531000001,-0.15135923029999998,0.351444453
2.069735208,0.8963633776000001,-0.14719893039999998,0.20629921559999997
2.079788208,0.8350145220999999,-0.1849471182,0.05989353359
2.089841208,0.7232894301,-0.166011706,-0.1133361608
2.0998942080000003,0.6071841717,-0.07202981412000001,-0.25882038469999996
2.109947208,0.5285909772,0.07742420584,-0.3067506552
2.120001208,0.4862441123,0.21447765829999998,-0.2657526433
2.1300542080000002,0.46725350619999995,0.22430559989999999,-0.1519052982
2.1401072080000003,0.4336452186,0.12262903900000001,-0.010521266609999998
2.150160208,0.36231419439999996,-0.001169383992,0.1500261575
2.160213208,0.2729933858,-0.0619911924,0.2480967939
2.170266208,0.2117233127,0.008054843172,0.2805623412
2.1803192080000002,0.1502559483,0.1303293556,0.30776867269999997
2.1903722080000003,0.09385481477,0.16475822029999998,0.3643564582
2.200425208,0.040495723489999996,0.1278958172,0.4711564183
2.210478208,-0.01609796472,0.07393700629,0.5683717132
2.220531208,-0.05026738346,0.04846733436000001,0.6426278353
2.2305842080000002,-0.029774583880000004,0.02032999694,0.7298715711
2.2406372080000003,-0.00901790522,0.004599502776,0.8179060817
2.250690208,0.014936211519999998,-0.024675672870000002,0.8923285006999999
2.260743208,0.03757441416,-0.048771955070000005,0.9396722913
2.270796208,0.06847570837,-0.048943668600000004,0.9349521995000001
2.2808492080000002,0.1145286858,-0.02365269326,0.9044305086
2.2909022080000003,0.1661538333,-0.01676041633,0.8649013042
2.300955208,0.2127506286,-0.05178337917,0.8396114111
2.311008208,0.2459002435,-0.1106736362,0.8103283048000001
2.321061208,0.28501036760000004,-0.1512245387,0.7631536126
2.3311142080000002,0.3500930667,-0.16812781989999998,0.6682294607
2.3411672080000003,0.4373004138,-0.13838297130000002,0.5438654423
2.351220208,0.5033891797,-0.12363545599999999,0.4094470143
2.361273208,0.5236819386,-0.1197134182,0.30318263170000004
2.371326208,0.524007082,-0.1093188301,0.2071407884
2.3813792080000002,0.5194951296,-0.07500240207,0.1285080314
2.3914322080000003,0.5019869208,-0.03800208122,0.02150005661
2.401485208,0.4904756844,0.013316500929999999,-0.09208030254
2.411538208,0.45121648909999995,0.04214819148,-0.1721885353
2.4215922080000003,0.3953372538,0.0099031711,-0.23742638530000001
2.431645208,0.3222028613,-0.04668501392,-0.274071902
2.441698208,0.24781970679999998,-0.1279015839,-0.2948181927
2.451751208,0.1821471602,-0.20109072329999997,-0.3268153667
2.461804208,0.1241243482,-0.22565385699999999,-0.3775896132
2.4718572080000003,0.07636423409,-0.2170683891,-0.4424942732
2.481910208,0.04738850518999999,-0.1882122308,-0.47765624520000005
2.491963208,-0.003681272734,-0.17395563420000001,-0.48354238270000005
2.502016208,-0.06502505392,-0.20828591289999998,-0.49350261689999997
2.512069208,-0.1133149266,-0.2762114704,-0.49548524619999995
2.5221222080000003,-0.14303073289999998,-0.35301971439999996,-0.5110434294
2.532175208,-0.1894375235,-0.4089346826,-0.5847397447
2.542228208,-0.23592673239999998,-0.4351471364,-0.7195004821
2.552281208,-0.2200900912,-0.3636840582,-0.8346672654
2.5623342080000002,-0.20496760309999998,-0.1982253343,-0.8124656081
2.5723872080000003,-0.2089961469,-0.10847359150000001,-0.7457496523999999
2.582440208,-0.2155278176,-0.09766515344,-0.7058277726000001
2.592493208,-0.21100138129999998,-0.1160334423,-0.6916781664
2.602546208,-0.22932712730000002,-0.11474633960000001,-0.7264449
2.6125992080000002,-0.2860765159,-0.1225168258,-0.8249955176999999
2.6226522080000003,-0.3668038249,-0.13013239199999999,-0.9592002034
2.632705208,-0.4409916103,-0.07948936522000001,-1.085505366
2.642758208,-0.4921546578,-0.01820549741,-1.143333197
2.652811208,-0.5375624299,-0.003429678502,-1.122446537
2.6628642080000002,-0.5731577277000001,-0.007057702169,-1.075829983
2.6729172080000003,-0.5917922854,-0.042855855080000005,-1.0537198779999999
2.682970208,-0.6090703607,-0.1016752273,-1.071942806
2.693023208,-0.6521075964,-0.11978697029999999,-1.130177855
2.703076208,-0.7321536541,-0.1055963188,-1.182852268
2.7131292080000002,-0.8309115170999999,-0.042508885260000004,-1.196283698
2.7231822080000003,-0.8887508512000001,-0.07729030401,-1.180905223
2.733235208,-0.9227250814,-0.1735550612,-1.1428262
2.743288208,-0.9533125162,-0.2362400144,-1.106719851
2.7533422080000003,-0.9747664331999999,-0.2846106291,-1.095825315
2.763395208,-1.009130001,-0.32349997760000004,-1.094660997
2.773448208,-1.058436155,-0.3430465758,-1.104007363
2.783501208,-1.114667535,-0.33756980299999995,-1.121258259
2.793554208,-1.185995698,-0.2277087569,-1.127708554
2.8036072080000003,-1.200113177,-0.176233843,-1.108465075
2.813660208,-1.181210876,-0.21136537190000002,-1.066037297
2.823713208,-1.168075562,-0.26257959010000004,-1.008991599
2.833766208,-1.167351842,-0.32308530809999997,-0.9549888371999999
2.843819208,-1.183333158,-0.3328798711,-0.9107593298000001
2.8538722080000003,-1.1881510020000001,-0.3199908137,-0.8867990375
2.863925208,-1.193936825,-0.2652045488,-0.8915240168999999
2.873978083,-1.206442595,-0.2028308064,-0.8980727195999999
2.884031083,-1.219124913,-0.1556377262,-0.8922206759
2.894084083,-1.231829047,-0.1738658249,-0.8758727908
2.904137083,-1.241402388,-0.2199283987,-0.853305161
2.9141900830000003,-1.2495902779999999,-0.2928709686,-0.8349950909999999
2.924243083,-1.263485312,-0.3206970096,-0.8160586953
2.934296083,-1.290958285,-0.360922724,-0.8158822059999999
2.944349083,-1.319458961,-0.40878826380000005,-0.8339365720999999
2.954402083,-1.346431375,-0.44689172509999997,-0.8573497534000001
2.9644550830000003,-1.345818639,-0.5449804664,-0.8470749854999999
2.974508083,-1.352175713,-0.6444766521,-0.7853156328
2.984561083,-1.3742834330000002,-0.7448320389,-0.6782094240000001
2.994614083,-1.393319011,-0.8805029392,-0.6051866412
3.004667083,-1.3997780080000002,-0.9765322804000001,-0.5923022628
3.0147200830000003,-1.404478669,-0.9964344501000001,-0.6013404727
3.024773083,-1.409338117,-0.9410167336,-0.6149556040999999
3.034826083,-1.39793539,-0.8712254167,-0.6208720803
3.044879083,-1.364906549,-0.8069300652,-0.6205258965
3.054932083,-1.332639456,-0.7671383619,-0.5979765654
3.0649850830000003,-1.296266794,-0.7991924286,-0.5660790801
3.075038083,-1.256768227,-0.8629370331999999,-0.5273064375
3.085091083,-1.2061758040000001,-0.9761144519,-0.5015395284
3.095144083,-1.186949372,-1.0183779,-0.5063336492
3.1051980830000003,-1.185857296,-0.979003787,-0.4917623699
3.115251083,-1.177615643,-0.9600088595999999,-0.4665162861
3.125304083,-1.176451802,-0.9438578486,-0.45506203170000004
3.135357083,-1.1757348779999999,-0.9537581801,-0.44214197990000004
3.1454100830000002,-1.1532794240000002,-1.027789593,-0.432292819
3.1554630830000003,-1.1145975590000001,-1.137270927,-0.4307447374
3.165516083,-1.06321454,-1.2552180290000001,-0.4234753847
3.175569083,-1.0170279740000001,-1.297627687,-0.4021673501
3.185622083,-0.9706121087,-1.3547163009999998,-0.36649402979999995
3.1956750830000002,-0.9568231702,-1.326108694,-0.32555702329999997
3.2057280830000003,-0.9659689665000001,-1.232536197,-0.2929311693
3.215781083,-0.9671219587000001,-1.1333496570000001,-0.29352015260000003
3.225834083,-0.9353137015999999,-1.054978609,-0.31833499670000004
3.235887083,-0.8740065098,-1.031395793,-0.3569125235
3.2459400830000003,-0.7892178893,-1.0536025759999998,-0.37541991469999997
3.255993083,-0.68319875,-1.108469725,-0.38754463200000006
3.266046083,-0.6143770814,-1.148684025,-0.38114425539999996
3.276099083,-0.6169822812,-1.133348703,-0.3638869226
3.286152083,-0.656185329,-1.061802506,-0.3434732556
3.2962050830000003,-0.6756916642,-0.9853065609999999,-0.35699895020000005
3.306258083,-0.6463644505,-0.9067675471,-0.3983985782
3.316311083,-0.5812604427,-0.8419990540000001,-0.4559290707
3.326364083,-0.4918575883,-0.8340433836,-0.513826251
3.336417083,-0.4250577092,-0.8688822985,-0.5363255143
3.3464700830000003,-0.40378597380000003,-0.9135310054000001,-0.5394510031
3.356523083,-0.43161255119999997,-0.9122018218000001,-0.5253375768999999
3.366576083,-0.4693327546,-0.8558077812,-0.5180205703
3.376629083,-0.4802325368,-0.7709568143000001,-0.511485517
3.386682083,-0.44269448520000004,-0.6934268475,-0.5061038136
